t,x_planet,y_planet,x_sputnik,y_sputnik,vx_planet,vy_planet,vx_sputnik,vy_sputnik,energy
0.000000000000000e+00,7.800000000000000e+11,0.000000000000000e+00,7.801670000000000e+11,0.000000000000000e+00,0.000000000000000e+00,1.300000000000000e+04,0.000000000000000e+00,1.370000000000000e+04,-1.644388462514676e+35
3.747519122492979e+04,7.799998991606080e+11,4.871795482688591e+08,7.780639248415422e+11,4.305067619575877e+08,-6.100884801647722e+00,1.300010904514646e+04,-8.376898527417150e+04,9.282052245121289e+03,-1.642368566229878e+35
7.495038244985958e+04,7.799995162412128e+11,9.743609822110822e+08,7.749372499402030e+11,7.787590240973973e+08,-1.433045000882868e+01,1.300010092581676e+04,-8.327758109310966e+04,9.298710298870472e+03,-1.642369226678221e+35
1.124255736747894e+05,7.799988251759750e+11,1.461542023471446e+09,7.718187550318113e+11,1.127328421560144e+09,-2.255027999001924e+01,1.300008798018069e+04,-8.317128321071749e+04,9.303255082355998e+03,-1.642369236744016e+35
1.499007648997192e+05,7.799978261075759e+11,1.948722484808230e+09,7.687028038531917e+11,1.476013353368994e+09,-3.076849814159630e+01,1.300006996381676e+04,-8.312841748641792e+04,9.305361822146586e+03,-1.642369237670463e+35
1.873759561246489e+05,7.799965190721641e+11,2.435902175295833e+09,7.655879816824589e+11,1.824758047985171e+09,-3.898614169844077e+01,1.300004683784095e+04,-8.310780368482598e+04,9.306569955888370e+03,-1.642369237841093e+35
2.248511473495787e+05,7.799949040847471e+11,2.923080903192133e+09,7.624737152224979e+11,2.173539066083131e+09,-4.720350657485358e+01,1.300001859045728e+04,-8.309760552362389e+04,9.307346755399431e+03,-1.642369237886914e+35
2.623263385745086e+05,7.799929811533060e+11,3.410258476469647e+09,7.593597139223385e+11,2.522344278354437e+09,-5.542070800402551e+01,1.299998521687626e+04,-8.309313869501743e+04,9.307882221637901e+03,-1.642369237902533e+35
2.998015297994383e+05,7.799907502828519e+11,3.897434702975128e+09,7.562458094089352e+11,2.871166550546891e+09,-6.363779911468701e+01,1.299994671479154e+04,-8.309217720707152e+04,9.308268133432277e+03,-1.642369237908811e+35
3.372767210243681e+05,7.799882114769583e+11,4.384609390491407e+09,7.531318948243558e+11,3.220001298043005e+09,-7.185480694588682e+01,1.299990308296075e+04,-8.309352779909215e+04,9.308554223439094e+03,-1.642369237911659e+35
3.747519122492978e+05,7.799853647384463e+11,4.871782346765561e+09,7.500178976777990e+11,3.568845373739837e+09,-8.007174600141668e+01,1.299985432066032e+04,-8.309649341267394e+04,9.308769757300397e+03,-1.642369237913075e+35
4.122271034742276e+05,7.799822100697310e+11,5.358953379523269e+09,7.469037661894508e+11,3.917696502188371e+09,-8.828862414853462e+01,1.299980042744484e+04,-8.310063970092854e+04,9.308933059508199e+03,-1.642369237913833e+35
4.497022946991574e+05,7.799787474730092e+11,5.846122296476782e+09,7.437894618027428e+11,4.266552966637776e+09,-9.650544547203982e+01,1.299974140302934e+04,-8.310568205504723e+04,9.309056171465963e+03,-1.642369237914263e+35
4.871774859240871e+05,7.799749769503710e+11,6.333288905329659e+09,7.406749547967166e+11,4.615413424394622e+09,-1.047222117720116e+02,1.299967724722709e+04,-8.311142631916431e+04,9.309147315994731e+03,-1.642369237914519e+35
5.246526771490169e+05,7.799708985038683e+11,6.820453013779723e+09,7.375602215752462e+11,4.964276792105070e+09,-1.129389234020611e+02,1.299960795991448e+04,-8.311773560994181e+04,9.309212285694166e+03,-1.642369237914679e+35
5.621278683739466e+05,7.799665121355586e+11,7.307614429521012e+09,7.344452429182855e+11,5.313142171392749e+09,-1.211555797637339e+02,1.299953354101024e+04,-8.312451074681990e+04,9.309255266171938e+03,-1.642369237914781e+35
5.996030595988764e+05,7.799618178475348e+11,7.794772960245100e+09,7.313300028123586e+11,5.662008798914786e+09,-1.293721796110967e+02,1.299945399046255e+04,-8.313167819587899e+04,9.309279345450785e+03,-1.642369237914850e+35
6.370782508238062e+05,7.799568156419454e+11,8.281928413642036e+09,7.282144876442084e+11,6.010876011789546e+09,-1.375887212454188e+02,1.299936930824081e+04,-8.313918236406568e+04,9.309286840771447e+03,-1.642369237914896e+35
6.745534420487359e+05,7.799515055210090e+11,8.769080597401033e+09,7.250986856300787e+11,6.359743223032747e+09,-1.458052026435941e+02,1.299927949433013e+04,-8.314698051622929e+04,9.309279514839520e+03,-1.642369237914929e+35
7.120286332736657e+05,7.799458874870247e+11,9.256229319210981e+09,7.219825864024766e+11,6.708609903701876e+09,-1.540216215452022e+02,1.299918454872767e+04,-8.315503932937841e+04,9.309258722809029e+03,-1.642369237914951e+35
7.495038244985954e+05,7.799399615423796e+11,9.743374386760845e+09,7.188661807049208e+11,7.057475569651958e+09,-1.622379755129579e+02,1.299908447144000e+04,-8.316333250028752e+04,9.309225514561698e+03,-1.642369237914967e+35
7.869790157235252e+05,7.799337276895552e+11,1.023051560773998e+10,7.157494601624326e+11,7.406339771532331e+09,-1.704542619755806e+02,1.299897926248132e+04,-8.317183904902398e+04,9.309180707368247e+03,-1.642369237914981e+35
8.244542069484550e+05,7.799271859311310e+11,1.071765278983841e+10,7.126324171062225e+11,7.755202087106418e+09,-1.786704782587725e+02,1.299886892187206e+04,-8.318054209317444e+04,9.309124938466663e+03,-1.642369237914989e+35
8.619293981733847e+05,7.799203362697883e+11,1.120478574074701e+10,7.095150444378568e+11,8.104062115265821e+09,-1.868866216079834e+02,1.299875344963797e+04,-8.318942794717301e+04,9.309058703738132e+03,-1.642369237914996e+35
8.994045893983145e+05,7.799131787083130e+11,1.169191426815771e+10,7.063973355226442e+11,8.452919471299684e+09,-1.951026892053962e+02,1.299863284580932e+04,-8.319848545042844e+04,9.308982386578540e+03,-1.642369237915002e+35
9.368797806232442e+05,7.799057132495974e+11,1.217903817976366e+10,7.032792841049655e+11,8.801773783107117e+09,-2.033186781827749e+02,1.299850711042042e+04,-8.320770545922844e+04,9.308896279738372e+03,-1.642369237915006e+35
9.743549718481740e+05,7.798979398966423e+11,1.266615728325934e+10,7.001608842402977e+11,9.150624688127188e+09,-2.115345856313053e+02,1.299837624350912e+04,-8.321708045769502e+04,9.308800602042022e+03,-1.642369237915010e+35
1.011830163073104e+06,7.798898586525581e+11,1.315327138634075e+10,6.970421302400919e+11,9.499471830821110e+09,-2.197504086092189e+02,1.299824024511653e+04,-8.322660425650148e+04,9.308695511325790e+03,-1.642369237915012e+35
1.049305354298034e+06,7.798814695205658e+11,1.364038029670545e+10,6.939230166266544e+11,9.848314860583776e+09,-2.279661441477615e+02,1.299809911528675e+04,-8.323627175712099e+04,9.308581114547573e+03,-1.642369237915014e+35
1.086780545522963e+06,7.798727725039982e+11,1.412748382205273e+10,6.908035380958929e+11,1.019715342999222e+10,-2.361817892559113e+02,1.299795285406666e+04,-8.324607876558867e+04,9.308457475755931e+03,-1.642369237915015e+35
1.124255736747893e+06,7.798637676063005e+11,1.461458177008366e+10,6.876836894863027e+11,1.054598719332070e+10,-2.443973409241417e+02,1.299780146150573e+04,-8.325602184408360e+04,9.308324622421211e+03,-1.642369237915017e+35
1.161730927972823e+06,7.798544548310311e+11,1.510167394850125e+10,6.845634657529436e+11,1.089481580526829e+10,-2.526127961274480e+02,1.299764493765597e+04,-8.326609819169180e+04,9.308182550500525e+03,-1.642369237915019e+35
1.199206119197753e+06,7.798448341818619e+11,1.558876016501046e+10,6.814428619454435e+11,1.124363891985703e+10,-2.608281518277988e+02,1.299748328257173e+04,-8.327630554789568e+04,9.308031228514643e+03,-1.642369237915020e+35
1.236681310422683e+06,7.798349056625790e+11,1.607584022731836e+10,6.783218731892695e+11,1.159245618946777e+10,-2.690434049761384e+02,1.299731649630966e+04,-8.328664211391872e+04,9.307870600846849e+03,-1.642369237915020e+35
1.274156501647613e+06,7.798246692770826e+11,1.656291394313418e+10,6.752004946696729e+11,1.194126726398747e+10,-2.772585525140313e+02,1.299714457892865e+04,-8.329710648821210e+04,9.307700590423987e+03,-1.642369237915020e+35
1.311631692872543e+06,7.798141250293882e+11,1.704998112016939e+10,6.720787216178312e+11,1.229007179004757e+10,-2.854735913750217e+02,1.299696753048972e+04,-8.330769761322877e+04,9.307521100902944e+03,-1.642369237915021e+35
1.349106884097473e+06,7.798032729236257e+11,1.753704156613779e+10,6.689565492988098e+11,1.263886941033639e+10,-2.936885184857650e+02,1.299678535105603e+04,-8.331841473127079e+04,9.307332018458201e+03,-1.642369237915021e+35
1.386582075322402e+06,7.797921129640409e+11,1.802409508875558e+10,6.658339730010353e+11,1.298765976297234e+10,-3.019033307669740e+02,1.299659804069281e+04,-8.332925734767990e+04,9.307133213245193e+03,-1.642369237915022e+35
1.424057266547332e+06,7.797806451549948e+11,1.851114149574146e+10,6.627109880270323e+11,1.333644248092678e+10,-3.101180251342136e+02,1.299640559946732e+04,-8.334022520000880e+04,9.306924540598346e+03,-1.642369237915022e+35
1.461532457772262e+06,7.797688695009640e+11,1.899818059481667e+10,6.595875896852213e+11,1.368521719148760e+10,-3.183325984985732e+02,1.299620802744882e+04,-8.335131823209325e+04,9.306705842010404e+03,-1.642369237915023e+35
1.499007648997192e+06,7.797567860065411e+11,1.948521219370509e+10,6.564637732826096e+11,1.403398351575593e+10,-3.265470477672371e+02,1.299600532470856e+04,-8.336253657216295e+04,9.306476945930273e+03,-1.642369237915023e+35
1.536482840222122e+06,7.797443946764348e+11,1.997223610013331e+10,6.533395341182382e+11,1.438274106816989e+10,-3.347613698439706e+02,1.299579749131976e+04,-8.337388051429910e+04,9.306237668409192e+03,-1.642369237915023e+35
1.573958031447052e+06,7.797316955154695e+11,2.045925212183069e+10,6.502148674772694e+11,1.473148945605006e+10,-3.429755616295363e+02,1.299558452735758e+04,-8.338535050267985e+04,9.305987813619289e+03,-1.642369237915024e+35
1.611433222671982e+06,7.797186885285861e+11,2.094626006652946e+10,6.470897686256204e+11,1.508022827916230e+10,-3.511896200220525e+02,1.299536643289910e+04,-8.339694711815934e+04,9.305727174264031e+03,-1.642369237915024e+35
1.648908413896912e+06,7.797053737208416e+11,2.143325974196476e+10,6.439642328050612e+11,1.542895712929421e+10,-3.594035419173011e+02,1.299514320802331e+04,-8.340867106681014e+04,9.305455531896416e+03,-1.642369237915023e+35
1.686383605121841e+06,7.796917510974094e+11,2.192025095587472e+10,6.408382552287107e+11,1.577767558984194e+10,-3.676173242089960e+02,1.299491485281112e+04,-8.342052317012484e+04,9.305172657157867e+03,-1.642369237915024e+35
1.723858796346771e+06,7.796778206635796e+11,2.240723351600056e+10,6.377118310768726e+11,1.612638323540469e+10,-3.758309637890147e+02,1.299468136734532e+04,-8.343250435662625e+04,9.304878309948475e+03,-1.642369237915024e+35
1.761333987571701e+06,7.796635824247585e+11,2.289420723008663e+10,6.345849554931624e+11,1.647507963138441e+10,-3.840444575476014e+02,1.299444275171060e+04,-8.344461565467887e+04,9.304572239537305e+03,-1.642369237915024e+35
1.798809178796631e+06,7.796490363864691e+11,2.338117190588047e+10,6.314576235808842e+11,1.682376433358863e+10,-3.922578023735440e+02,1.299419900599349e+04,-8.345685818632909e+04,9.304254184619997e+03,-1.642369237915024e+35
1.836284370021561e+06,7.796341825543510e+11,2.386812735113292e+10,6.283298303996216e+11,1.717243688783458e+10,-4.004709951543295e+02,1.299395013028243e+04,-8.346923316203021e+04,9.303923873329593e+03,-1.642369237915024e+35
1.873759561246491e+06,7.796190209341604e+11,2.435507337359817e+10,6.252015709620111e+11,1.752109682955288e+10,-4.086840327762810e+02,1.299369612466771e+04,-8.348174187613177e+04,9.303581023205525e+03,-1.642369237915024e+35
1.911234752471421e+06,7.796035515317704e+11,2.484200978103380e+10,6.220728402306724e+11,1.786974368338935e+10,-4.168969121246780e+02,1.299343698924145e+04,-8.349438570303172e+04,9.303225341124797e+03,-1.642369237915024e+35
1.948709943696351e+06,7.795877743531705e+11,2.532893638120092e+10,6.189436331152710e+11,1.821837696280364e+10,-4.251096300838637e+02,1.299317272409767e+04,-8.350716609390608e+04,9.302856523198770e+03,-1.642369237915024e+35
1.986185134921280e+06,7.795716894044674e+11,2.581585298186415e+10,6.158139444696949e+11,1.856699616966333e+10,-4.333221835373393e+02,1.299290332933220e+04,-8.352008457394374e+04,9.302474254638266e+03,-1.642369237915024e+35
2.023660326146210e+06,7.795552966918843e+11,2.630275939079179e+10,6.126837690893253e+11,1.891560079383243e+10,-4.415345693678482e+02,1.299262880504274e+04,-8.353314274002481e+04,9.302078209589279e+03,-1.642369237915024e+35
2.061135517371140e+06,7.795385962217612e+11,2.678965541575578e+10,6.095531017083873e+11,1.926419031275325e+10,-4.497467844574512e+02,1.299234915132882e+04,-8.354634225879076e+04,9.301668050941153e+03,-1.642369237915024e+35
2.098610708596070e+06,7.795215880005553e+11,2.727654086453187e+10,6.064219369973665e+11,1.961276419102050e+10,-4.579588256875938e+02,1.299206436829182e+04,-8.355968486506141e+04,9.301243430108694e+03,-1.642369237915024e+35
2.136085899821000e+06,7.795042720348403e+11,2.776341554489961e+10,6.032902695604784e+11,1.996132187994687e+10,-4.661706899391657e+02,1.299177445603493e+04,-8.357317236056108e+04,9.300803986789429e+03,-1.642369237915024e+35
2.173561091045930e+06,7.794866483313071e+11,2.825027926464248e+10,6.001580939331813e+11,2.030986281711892e+10,-4.743823740925552e+02,1.299147941466321e+04,-8.358680661292101e+04,9.300349348696922e+03,-1.642369237915025e+35
2.211036282270859e+06,7.794687168967633e+11,2.873713183154791e+10,5.970254045797203e+11,2.065838642594271e+10,-4.825938750276974e+02,1.299117924428353e+04,-8.360058955493046e+04,9.299879131270840e+03,-1.642369237915024e+35
2.248511473495789e+06,7.794504777381335e+11,2.922397305340738e+10,5.938921958906969e+11,2.100689211517798e+10,-4.908051896241182e+02,1.299087394500459e+04,-8.361452318401233e+04,9.299392937364293e+03,-1.642369237915024e+35
2.285986664720719e+06,7.794319308624594e+11,2.971080273801648e+10,5.907584621806526e+11,2.135537927846025e+10,-4.990163147609733e+02,1.299056351693694e+04,-8.362860956190275e+04,9.298890356908745e+03,-1.642369237915025e+35
2.323461855945649e+06,7.794130762768992e+11,3.019762069317495e+10,5.876241976856626e+11,2.170384729381001e+10,-5.072272473170844e+02,1.299024796019292e+04,-8.364285081451690e+04,9.298370966556682e+03,-1.642369237915026e+35
2.360937047170579e+06,7.793939139887286e+11,3.068442672668682e+10,5.844893965609299e+11,2.205229552312801e+10,-5.154379841709713e+02,1.298992727488672e+04,-8.365724913198598e+04,9.297834329302061e+03,-1.642369237915025e+35
2.398412238395509e+06,7.793744440053401e+11,3.117122064636041e+10,5.813540528783760e+11,2.240072331167592e+10,-5.236485222008813e+02,1.298960146113437e+04,-8.367180676885204e+04,9.297279994078457e+03,-1.642369237915024e+35
2.435887429620439e+06,7.793546663342430e+11,3.165800226000840e+10,5.782181606242208e+11,2.274912998754159e+10,-5.318588582848163e+02,1.298927051905368e+04,-8.368652604440962e+04,9.296707495334678e+03,-1.642369237915025e+35
2.473362620845369e+06,7.793345809830640e+11,3.214477137544796e+10,5.750817136965480e+11,2.309751486108788e+10,-5.400689893005568e+02,1.298893444876431e+04,-8.370140934318460e+04,9.296116352587549e+03,-1.642369237915025e+35
2.510837812070298e+06,7.793141879595463e+11,3.263152780050076e+10,5.719447059028486e+11,2.344587722438436e+10,-5.482789121256845e+02,1.298859325038775e+04,-8.371645911554189e+04,9.295506069951438e+03,-1.642369237915025e+35
2.548313003295228e+06,7.792934872715505e+11,3.311827134299305e+10,5.688071309575414e+11,2.379421635062090e+10,-5.564886236376024e+02,1.298824692404728e+04,-8.373167787841517e+04,9.294876135644030e+03,-1.642369237915025e+35
2.585788194520158e+06,7.792724789270543e+11,3.360500181075573e+10,5.656689824794618e+11,2.414253149350230e+10,-5.646981207135537e+02,1.298789546986803e+04,-8.374706821615272e+04,9.294226021467730e+03,-1.642369237915024e+35
2.623263385745088e+06,7.792511629341521e+11,3.409171901162446e+10,5.625302539893186e+11,2.449082188662303e+10,-5.729074002306392e+02,1.298753888797693e+04,-8.376263278147439e+04,9.293555182266027e+03,-1.642369237915024e+35
2.660738576970018e+06,7.792295393010554e+11,3.457842275343964e+10,5.593909389071117e+11,2.483908674282111e+10,-5.811164590658324e+02,1.298717717850272e+04,-8.377837429653562e+04,9.292863055354044e+03,-1.642369237915025e+35
2.698213768194948e+06,7.792076080360929e+11,3.506511284404657e+10,5.562510305495085e+11,2.518732525351009e+10,-5.893252940959948e+02,1.298681034157599e+04,-8.379429555409525e+04,9.292149059922420e+03,-1.642369237915025e+35
2.735688959419878e+06,7.791853691477102e+11,3.555178909129545e+10,5.531105221271749e+11,2.553553658798833e+10,-5.975339021978889e+02,1.298643837732911e+04,-8.381039941878438e+04,9.291412596413591e+03,-1.642369237915025e+35
2.773164150644808e+06,7.791628226444701e+11,3.603845130304149e+10,5.499694067420562e+11,2.588371989272417e+10,-6.057422802481907e+02,1.298606128589629e+04,-8.382668882847425e+04,9.290653045869467e+03,-1.642369237915024e+35
2.810639341869737e+06,7.791399685350522e+11,3.652509928714496e+10,5.468276773846050e+11,2.623187429061628e+10,-6.139504251235011e+02,1.298567906741354e+04,-8.384316679574166e+04,9.289869769249379e+03,-1.642369237915025e+35
2.848114533094667e+06,7.791168068282535e+11,3.701173285147126e+10,5.436853269309533e+11,2.657999888022777e+10,-6.221583337003566e+02,1.298529172201871e+04,-8.385983640943092e+04,9.289062106717140e+03,-1.642369237915025e+35
2.885589724319597e+06,7.790933375329878e+11,3.749835180389099e+10,5.405423481400233e+11,2.692809273499303e+10,-6.303660028552392e+02,1.298489924985144e+04,-8.387670083631169e+04,9.288229376895933e+03,-1.642369237915025e+35
2.923064915544527e+06,7.790695606582859e+11,3.798495595228002e+10,5.373987336505743e+11,2.727615490239598e+10,-6.385734294645857e+02,1.298450165105319e+04,-8.389376332283283e+04,9.287370876089682e+03,-1.642369237915025e+35
2.960540106769457e+06,7.790454762132959e+11,3.847154510451955e+10,5.342544759781829e+11,2.762418440311857e+10,-6.467806104047960e+02,1.298409892576724e+04,-8.391102719697222e+04,9.286485877469435e+03,-1.642369237915025e+35
2.998015297994387e+06,7.790210842072827e+11,3.895811906849619e+10,5.311095675121507e+11,2.797218023015800e+10,-6.549875425522412e+02,1.298369107413868e+04,-8.392849587018340e+04,9.285573630223244e+03,-1.642369237915025e+35
3.035490489219317e+06,7.789963846496285e+11,3.944467765210202e+10,5.279640005123390e+11,2.832014134791145e+10,-6.631942227832711e+02,1.298327809631441e+04,-8.394617283943995e+04,9.284633358667874e+03,-1.642369237915025e+35
3.072965680444247e+06,7.789713775498325e+11,3.993122066323465e+10,5.248177671059233e+11,2.866806669122679e+10,-6.714006479742212e+02,1.298285999244315e+04,-8.396406168937894e+04,9.283664261320617e+03,-1.642369237915024e+35
3.110440871669177e+06,7.789460629175107e+11,4.041774790979730e+10,5.216708592840670e+11,2.901595516441766e+10,-6.796068150014191e+02,1.298243676267543e+04,-8.398216609454495e+04,9.282665509929335e+03,-1.642369237915025e+35
3.147916062894106e+06,7.789204407623966e+11,4.090425919969888e+10,5.185232688985076e+11,2.936380564024145e+10,-6.878127207411909e+02,1.298200840716359e+04,-8.400048982173682e+04,9.281636248458784e+03,-1.642369237915024e+35
3.185391254119036e+06,7.788945110943403e+11,4.139075434085401e+10,5.153749876580547e+11,2.971161695883838e+10,-6.960183620698664e+02,1.298157492606179e+04,-8.401903673245903e+04,9.280575592031133e+03,-1.642369237915025e+35
3.222866445343966e+06,7.788682739233093e+11,4.187723314118317e+10,5.122260071249929e+11,3.005938792663008e+10,-7.042237358637854e+02,1.298113631952599e+04,-8.403781078548064e+04,9.279482625818455e+03,-1.642369237915024e+35
3.260341636568896e+06,7.788417292593881e+11,4.236369540861267e+10,5.090763187113872e+11,3.040711731517563e+10,-7.124288389993019e+02,1.298069258771397e+04,-8.405681603950409e+04,9.278356403884873e+03,-1.642369237915024e+35
3.297816827793826e+06,7.788148771127781e+11,4.285014095107481e+10,5.059259136752860e+11,3.075480385998325e+10,-7.206336683527896e+02,1.298024373078533e+04,-8.407605665594729e+04,9.277195947975850e+03,-1.642369237915024e+35
